# first column: time
# 2 column: 0 component of the mean thermodynamic force for material 1
# 3 column: 1 component of the mean thermodynamic force for material 1
# 4 column: 2 component of the mean thermodynamic force for material 1
# 5 column: 3 component of the mean thermodynamic force for material 1
# 6 column: 4 component of the mean thermodynamic force for material 1
# 7 column: 5 component of the mean thermodynamic force for material 1
0.01 2.1e+07 2.45778e-09 2.41833e-09 3.61101e-10 2.40614e-10 6.62058e-10
0.02 4.2e+07 1.71926e-09 1.68891e-09 -8.07913e-11 6.20363e-10 1.49824e-09
0.03 6.3e+07 -1.64505e-09 1.11739e-09 5.48358e-10 1.38931e-09 1.51639e-09
0.04 8.4e+07 9.53277e-09 9.53277e-09 5.78221e-10 5.75186e-10 8.01919e-10
0.05 1.05e+08 -7.03432e-10 -7.03432e-10 -4.64634e-10 -4.06138e-10 4.37624e-10
0.06 1.26e+08 1.09129e-09 4.79817e-09 3.1183e-11 1.41037e-09 1.20961e-09
0.07 1.47e+08 -7.03754e-09 -3.76768e-09 -1.52273e-09 -1.07782e-09 1.98274e-09
0.08 1.68e+08 -2.19494e-09 -1.05869e-09 9.97355e-10 1.39202e-09 3.06918e-09
0.09 1.89e+08 -2.81502e-09 1.97468e-09 1.89219e-09 3.89492e-10 9.49147e-10
0.1 2.1e+08 1.46117e-08 1.46117e-08 1.5417e-09 1.57551e-09 -1.23867e-09
0.11 2.31e+08 -2.55564e-08 -2.69548e-08 1.94703e-09 5.87806e-09 -9.78129e-10
0.12 2.52e+08 7.08551e-09 7.3283e-09 -2.53658e-09 -2.28469e-09 -5.7662e-10
0.13 2.73e+08 -1.21779e-08 -1.24207e-08 -3.56955e-09 -3.66727e-09 8.01653e-10
0.14 2.94e+08 2.49971e-08 2.56283e-08 -8.19134e-10 -1.21324e-09 2.06855e-09
0.15 3.01875e+08 4.84075e-09 5.32633e-09 -4.80895e-10 4.93686e-10 1.01e-10
0.16 3.045e+08 -1.62119e-09 -3.54406e-09 3.27012e-09 3.58945e-09 2.55307e-09
0.17 3.07125e+08 9.0197e-09 8.29133e-09 9.33501e-10 -6.50622e-10 4.96365e-09
0.18 3.0975e+08 -5.01501e-09 3.1407e-09 -3.65464e-09 -9.0639e-10 2.38084e-09
0.19 3.12375e+08 2.60995e-08 2.72649e-08 9.60041e-12 2.44718e-09 1.07612e-08
0.2 3.15e+08 3.43066e-08 3.40541e-08 1.03299e-09 3.02032e-09 1.173e-08
0.21 3.17625e+08 -5.079e-09 -2.56373e-09 -6.72873e-09 -4.61487e-09 1.64364e-08
0.22 3.2025e+08 1.07866e-08 1.81188e-08 -1.57425e-09 -7.82816e-10 -5.01554e-10
0.23 3.22875e+08 -3.4024e-09 7.38512e-09 1.45922e-09 5.51398e-09 7.49886e-09
0.24 3.255e+08 -1.83881e-08 -1.72907e-08 -1.84917e-09 6.10607e-09 1.06274e-08
0.25 3.28125e+08 -1.05748e-08 -4.94409e-09 3.21567e-09 9.90332e-09 9.0538e-09
0.26 3.3075e+08 -4.68284e-09 -2.03161e-09 -2.78086e-09 1.28003e-09 6.60782e-09
0.27 3.33375e+08 1.39649e-08 1.90421e-08 -3.73697e-09 6.02908e-10 6.66938e-10
0.28 3.36e+08 1.97048e-08 2.04817e-08 -1.3359e-08 -1.02696e-08 1.27628e-08
0.29 3.38625e+08 -2.91009e-08 -2.95166e-08 -1.27419e-08 2.93314e-09 -6.67296e-09
0.3 3.4125e+08 6.29304e-09 1.26249e-09 -6.26455e-09 1.09326e-08 -7.4885e-10
0.31 2.7125e+08 -3.78911e-08 -4.85155e-08 -1.02391e-08 7.2249e-09 1.39405e-09
0.32 2.0125e+08 -9.9321e-09 -8.66961e-09 -8.64842e-10 9.81081e-10 -7.88073e-09
0.33 1.3125e+08 -4.53973e-09 -7.82222e-09 5.79955e-10 -2.15136e-09 1.21047e-08
0.34 6.125e+07 -1.5919e-08 -1.08884e-08 -2.39073e-09 -4.69207e-09 1.0042e-10
0.35 -8.75e+06 -6.40642e-09 -1.86144e-09 1.2183e-09 8.16046e-10 -6.48792e-09
0.36 -7.875e+07 -1.47283e-08 -1.54605e-08 1.66966e-09 3.47721e-09 -1.8325e-09
0.37 -1.4875e+08 -2.38576e-08 -2.37508e-08 -1.43279e-11 3.45636e-09 -2.14472e-09
0.38 -2.1875e+08 -8.38292e-09 -1.59326e-08 2.0931e-10 3.18466e-09 -6.27083e-09
0.39 -2.8875e+08 6.82558e-09 2.5331e-09 -1.87687e-09 2.02779e-09 -2.64259e-09
0.4 -3.43437e+08 -1.39405e-08 -1.86836e-08 -9.92584e-11 1.34978e-09 -4.23224e-09
0.41 -3.52187e+08 1.65842e-08 1.75068e-08 -1.07733e-09 1.02982e-09 -2.67402e-09
0.42 -3.60938e+08 -6.78e-09 3.17157e-10 -2.71865e-09 -3.10651e-10 -9.98622e-09
0.43 -3.69687e+08 2.01565e-08 2.02031e-08 -1.0091e-09 2.94879e-09 -2.94265e-09
0.44 -3.78438e+08 3.66927e-09 -3.84743e-09 3.42027e-09 2.65121e-09 1.38251e-09
0.45 -3.87188e+08 -4.37711e-09 -4.47422e-09 2.27244e-09 4.45486e-09 4.12074e-10
0.46 -3.95938e+08 5.98216e-10 -8.58303e-09 1.50734e-09 2.59315e-09 -3.84886e-09
0.47 -4.04688e+08 2.26789e-08 1.00346e-08 2.60164e-09 7.51481e-09 4.79917e-09
0.48 -4.13437e+08 1.47181e-08 1.56698e-08 -3.28741e-09 5.41823e-09 -1.2016e-08
0.49 -4.22187e+08 -1.56756e-08 -2.00652e-08 -1.03351e-08 8.39458e-09 -7.45518e-09
0.5 -4.30937e+08 -6.34633e-08 -5.47152e-08 -9.29452e-09 -4.30574e-10 -7.98501e-09
0.51 -4.39687e+08 7.77108e-08 7.48634e-08 -1.32871e-08 -1.04477e-08 9.68431e-11
0.52 -4.48438e+08 -8.15949e-08 -7.63235e-08 -1.75404e-08 -6.41006e-09 -4.64436e-09
0.53 -4.57188e+08 5.95925e-08 3.91906e-08 3.04759e-09 5.31044e-09 -1.13998e-08
0.54 -4.65938e+08 -3.13116e-08 -4.61197e-08 1.02783e-08 1.06648e-08 -9.28116e-09
0.55 -4.74687e+08 -3.7575e-09 -1.68175e-08 5.69969e-09 3.45048e-10 -9.85734e-09
0.56 -4.83437e+08 -1.08935e-08 -9.96893e-09 -9.28759e-10 -1.16662e-08 -5.60638e-09
0.57 -4.92187e+08 5.49241e-08 1.54916e-08 -3.53928e-09 5.30921e-09 -2.77183e-08
0.58 -5.00937e+08 1.54681e-08 2.55564e-08 5.87867e-09 -1.05908e-09 2.28035e-08
0.59 -5.09687e+08 1.63876e-07 1.58484e-07 -6.12249e-09 -6.11894e-09 1.47492e-08
0.6 -5.18437e+08 1.14211e-07 7.56603e-08 -1.57265e-08 -1.09163e-08 1.39683e-08
0.61 -4.48437e+08 4.27317e-09 2.41779e-08 -8.48177e-09 -1.6556e-08 -2.5769e-08
0.62 -3.78437e+08 -1.20634e-07 -9.3737e-08 -4.87298e-09 -1.11118e-08 4.4282e-08
0.63 -3.08437e+08 -9.7402e-08 -7.74974e-08 -1.51872e-08 -1.87699e-08 4.05996e-08
0.64 -2.38437e+08 1.9687e-08 3.95917e-08 1.70085e-09 -1.03212e-08 3.1396e-08
0.65 -1.68437e+08 -1.67408e-08 3.16383e-09 6.17688e-09 -3.44153e-09 -3.3398e-09
0.66 -9.84375e+07 1.4095e-08 2.18409e-08 -1.88422e-08 -1.60455e-08 -1.68339e-08
0.67 -2.84375e+07 -1.50401e-08 2.48469e-08 6.82722e-10 1.03826e-09 1.76606e-08
0.68 4.15625e+07 -1.93175e-08 1.86272e-08 2.75801e-09 2.60163e-09 1.4147e-08
0.69 1.11563e+08 -1.74196e-09 3.0609e-08 -8.2893e-09 -5.09813e-09 1.17358e-08
0.7 1.81563e+08 -2.00228e-08 -1.24465e-09 -9.28685e-09 -5.90461e-09 -5.41369e-09
0.71 2.51563e+08 7.67711e-09 1.9463e-08 -7.51869e-09 4.30333e-09 2.28755e-08
0.72 3.21563e+08 2.87683e-08 4.07096e-08 -8.58738e-09 -3.45063e-09 7.68056e-09
0.73 3.91563e+08 4.65475e-08 3.53987e-08 -2.61858e-09 -5.04089e-09 -5.20416e-09
0.74 4.61563e+08 3.1987e-08 3.38516e-08 -6.70384e-09 -1.52976e-09 9.69205e-09
0.75 5.20078e+08 -1.73116e-08 -2.72561e-08 2.09495e-09 -3.63951e-09 3.09726e-09
0.76 5.28828e+08 9.41441e-09 8.05092e-09 -3.71531e-09 -6.74728e-09 3.46876e-09
0.77 5.37578e+08 2.16145e-09 -1.27943e-08 1.10866e-10 -1.52499e-09 6.60126e-10
0.78 5.46328e+08 -1.58185e-08 -2.33547e-08 3.04555e-09 5.79775e-09 1.49058e-08
0.79 5.55078e+08 -8.96001e-09 -4.76852e-09 5.70348e-09 5.37743e-09 1.26814e-08
0.8 5.63828e+08 -1.94938e-08 -6.63971e-09 3.4747e-09 2.50719e-10 8.86833e-09
0.81 5.72578e+08 -3.35323e-08 -2.90883e-08 -1.41972e-09 -2.00076e-09 1.4313e-08
0.82 5.81328e+08 -3.68865e-08 -2.80917e-08 4.81666e-11 -2.76414e-09 1.2354e-08
0.83 5.90078e+08 -5.11011e-08 -4.33746e-08 3.20369e-09 -1.67072e-09 1.43258e-08
0.84 5.98828e+08 1.93349e-08 2.36157e-08 -3.01142e-10 -2.19159e-09 1.0708e-08
0.85 6.07578e+08 -2.71674e-08 -1.9573e-08 2.73478e-09 3.03437e-09 1.24321e-08
0.86 6.16328e+08 -3.07503e-08 -2.79922e-08 -9.36403e-10 -3.45807e-10 5.66962e-09
0.87 6.25078e+08 -7.94793e-08 -8.31969e-08 -1.92509e-10 9.36686e-09 8.20766e-09
0.88 6.33828e+08 -3.40629e-08 -2.67016e-08 -1.05086e-09 3.44891e-09 1.13564e-08
0.89 6.42578e+08 3.79947e-08 5.03672e-08 3.69609e-09 5.26998e-09 1.19924e-08
0.9 6.51328e+08 4.98097e-09 1.3865e-08 6.35176e-09 4.74895e-09 2.39446e-08
0.91 6.60078e+08 2.7685e-09 1.08873e-08 -2.73655e-09 -1.21801e-09 7.788e-09
0.92 6.68828e+08 -5.2503e-08 -4.79658e-08 6.57255e-09 1.60091e-08 2.72393e-08
0.93 6.77578e+08 -6.17038e-08 -6.32693e-08 7.50289e-09 1.51538e-09 2.14994e-08
0.94 6.86328e+08 4.59665e-08 5.41359e-08 -5.36275e-09 -1.45257e-08 3.4523e-08
0.95 6.95078e+08 3.63437e-08 5.17151e-08 -1.74355e-09 2.29871e-09 3.16613e-08
0.96 7.03828e+08 8.90547e-08 9.83078e-08 -5.3885e-09 2.58779e-09 3.34743e-08
0.97 7.12578e+08 -2.35004e-09 9.09786e-09 8.44241e-11 -1.05512e-08 3.93513e-08
0.98 7.21328e+08 -1.33745e-08 -1.18595e-08 1.73434e-08 1.31511e-08 2.7202e-08
0.99 7.30078e+08 -4.97896e-10 -1.019e-08 1.30006e-08 1.04616e-08 3.1848e-08
1 7.38828e+08 4.81508e-08 7.94141e-08 -1.9821e-09 -1.30415e-09 1.64153e-08
