# first column: time
# 2 column: 0 component of the mean thermodynamic force for material 1
# 3 column: 1 component of the mean thermodynamic force for material 1
# 4 column: 2 component of the mean thermodynamic force for material 1
# 5 column: 3 component of the mean thermodynamic force for material 1
# 6 column: 4 component of the mean thermodynamic force for material 1
# 7 column: 5 component of the mean thermodynamic force for material 1
0.01  2.1e+07  2.45778e-09  2.41833e-09  3.61101e-10  2.40614e-10  6.62058e-10
0.02  4.2e+07  1.71926e-09  1.68891e-09  -8.07913e-11  6.20363e-10  1.49824e-09
0.03  6.3e+07  -1.64505e-09  1.11739e-09  5.48358e-10  1.38931e-09  1.51639e-09
0.04  8.4e+07  9.53277e-09  9.53277e-09  5.78221e-10  5.75186e-10  8.01919e-10
0.05  1.05e+08  -7.03432e-10  -7.03432e-10  -4.64634e-10  -4.06138e-10  4.37624e-10
0.06  1.26e+08  1.09129e-09  4.79817e-09  3.1183e-11  1.41037e-09  1.20961e-09
0.07  1.47e+08  -7.03754e-09  -3.76768e-09  -1.52273e-09  -1.07782e-09  1.98274e-09
0.08  1.68e+08  -2.19494e-09  -1.05869e-09  9.97355e-10  1.39202e-09  3.06918e-09
0.09  1.89e+08  -2.81502e-09  1.97468e-09  1.89219e-09  3.89492e-10  9.49147e-10
0.1  2.1e+08  1.46117e-08  1.46117e-08  1.5417e-09  1.57551e-09  -1.23867e-09
0.11  2.31e+08  -2.55564e-08  -2.69548e-08  1.94703e-09  5.87806e-09  -9.78129e-10
0.12  2.52e+08  7.08551e-09  7.3283e-09  -2.53658e-09  -2.28469e-09  -5.7662e-10
0.13  2.73e+08  -1.21779e-08  -1.24207e-08  -3.56955e-09  -3.66727e-09  8.01653e-10
0.14  2.94e+08  2.49971e-08  2.56283e-08  -8.19134e-10  -1.21324e-09  2.06855e-09
0.15  3.01875e+08  4.84075e-09  5.32633e-09  -4.80895e-10  4.93686e-10  1.01e-10
0.16  3.045e+08  -1.62119e-09  -3.54406e-09  3.27012e-09  3.58945e-09  2.55307e-09
0.17  3.07125e+08  9.0197e-09  8.29133e-09  9.33501e-10  -6.50622e-10  4.96365e-09
0.18  3.0975e+08  -5.01501e-09  3.1407e-09  -3.65464e-09  -9.0639e-10  2.38084e-09
0.19  3.12375e+08  2.60995e-08  2.72649e-08  9.60041e-12  2.44718e-09  1.07612e-08
0.2  3.15e+08  3.43066e-08  3.40541e-08  1.03299e-09  3.02032e-09  1.173e-08
0.21  3.17625e+08  -5.079e-09  -2.56373e-09  -6.72873e-09  -4.61487e-09  1.64364e-08
0.22  3.2025e+08  1.07866e-08  1.81188e-08  -1.57425e-09  -7.82816e-10  -5.01554e-10
0.23  3.22875e+08  -3.4024e-09  7.38512e-09  1.45922e-09  5.51398e-09  7.49886e-09
0.24  3.255e+08  -1.83881e-08  -1.72907e-08  -1.84917e-09  6.10607e-09  1.06274e-08
0.25  3.28125e+08  -1.05748e-08  -4.94409e-09  3.21567e-09  9.90332e-09  9.0538e-09
0.26  3.3075e+08  -4.68284e-09  -2.03161e-09  -2.78086e-09  1.28003e-09  6.60782e-09
0.27  3.33375e+08  1.39649e-08  1.90421e-08  -3.73697e-09  6.02908e-10  6.66938e-10
0.28  3.36e+08  1.97048e-08  2.04817e-08  -1.3359e-08  -1.02696e-08  1.27628e-08
0.29  3.38625e+08  -1.99687e-08  -1.35669e-08  -1.27419e-08  -1.97414e-09  -7.99133e-09
0.3  3.4125e+08  7.72186e-09  4.30341e-09  -6.26455e-09  5.82804e-09  -3.58601e-09
0.31  2.7125e+08  -2.08642e-08  -3.72844e-08  -4.24608e-09  3.52848e-09  -2.5588e-10
0.32  2.0125e+08  -7.97961e-09  -4.61944e-09  5.24879e-09  -8.72591e-10  -8.25117e-09
0.33  1.3125e+08  -1.05016e-08  -7.14143e-09  3.95348e-09  -4.28667e-09  1.15789e-08
0.34  6.125e+07  -4.45956e-08  -2.58446e-08  -1.33218e-09  -4.08631e-09  8.79711e-09
0.35  -8.75e+06  -5.75251e-09  -1.82906e-09  1.2183e-09  1.42181e-09  -6.23682e-09
0.36  -7.875e+07  -2.03195e-08  -2.71311e-08  1.66966e-09  6.86592e-09  -3.77182e-10
0.37  -1.4875e+08  -1.01815e-09  -6.1497e-09  -8.70124e-11  5.84212e-09  -4.32175e-09
0.38  -2.1875e+08  -1.18723e-08  -1.72855e-08  -9.48589e-10  1.10468e-09  3.19708e-10
0.39  -2.8875e+08  1.01888e-08  6.43049e-09  -2.82562e-10  1.77673e-09  -8.90101e-10
0.4  -3.43437e+08  -2.03812e-08  -2.17699e-08  1.46438e-09  2.89683e-09  -3.35948e-09
0.41  -3.52187e+08  1.17519e-08  1.01204e-08  1.38463e-09  2.80901e-09  -4.84499e-09
0.42  -3.60938e+08  -2.53981e-08  -2.83698e-08  3.21162e-09  2.00513e-09  -1.07338e-08
0.43  -3.69687e+08  1.29656e-08  1.8103e-08  -1.91926e-10  4.99301e-09  2.17376e-09
0.44  -3.78438e+08  1.73952e-08  1.53189e-08  2.23445e-09  3.15311e-09  1.52593e-09
0.45  -3.87188e+08  3.75068e-08  3.85362e-08  -1.05514e-09  3.97991e-09  -5.67347e-09
0.46  -3.95937e+08  3.04998e-08  3.46854e-08  -4.18396e-09  -1.22621e-09  1.29239e-09
0.47  -4.04687e+08  4.71469e-08  5.62446e-08  7.13181e-09  1.35755e-08  -3.68318e-09
0.48  -4.13437e+08  2.60864e-08  2.46491e-08  3.64658e-09  6.30766e-10  -5.76807e-09
0.49  -4.22187e+08  -2.45926e-08  -3.74584e-08  4.41585e-09  8.20948e-09  -6.771e-09
0.5  -4.30937e+08  1.70264e-09  -1.41931e-08  6.91419e-09  4.39198e-09  -1.89674e-08
0.51  -4.39688e+08  -4.67049e-09  7.10761e-09  7.12995e-10  -1.1984e-08  -2.59151e-08
0.52  -4.48437e+08  -7.98854e-08  -5.37731e-08  -1.96149e-09  -1.6162e-09  -2.84175e-09
0.53  -4.57188e+08  2.33617e-08  3.17797e-08  -1.24987e-09  1.61363e-08  -8.53425e-09
0.54  -4.65938e+08  -4.57209e-09  -1.67029e-09  5.41077e-09  1.48126e-08  -2.55711e-09
0.55  -4.74687e+08  7.59252e-09  8.90163e-09  -7.66395e-09  5.75562e-09  -1.9978e-08
0.56  -4.83437e+08  -9.98816e-11  -7.25531e-09  -1.17149e-08  -3.99929e-09  -1.96516e-08
0.57  -4.92188e+08  -2.52454e-08  -3.80568e-08  1.69571e-09  4.39121e-10  -1.84911e-08
0.58  -5.00937e+08  5.76143e-08  3.76553e-08  -2.55472e-09  -5.34286e-09  3.26026e-08
0.59  -5.09687e+08  6.05836e-08  5.90764e-08  -1.5371e-08  1.05202e-08  -1.34363e-08
0.6  -5.18437e+08  -9.33994e-08  -1.1036e-07  -1.71094e-08  2.08058e-08  4.37654e-09
0.61  -4.48437e+08  -5.70576e-08  -9.44507e-08  -1.23261e-08  1.31292e-08  -2.23893e-09
0.62  -3.78437e+08  5.09352e-08  8.49209e-09  -6.99838e-09  3.40497e-08  -1.05954e-08
0.63  -3.08437e+08  1.83541e-08  4.99888e-09  -1.47529e-10  1.39473e-08  2.2957e-08
0.64  -2.38437e+08  5.33743e-08  5.8199e-08  8.84689e-09  2.43538e-08  1.14955e-08
0.65  -1.68437e+08  4.1775e-08  2.80158e-08  8.45722e-09  5.16361e-09  1.44296e-08
0.66  -9.84375e+07  9.0348e-09  3.26221e-08  -1.63469e-08  9.46882e-10  -1.09931e-08
0.67  -2.84375e+07  2.12722e-08  3.51868e-08  -1.94051e-09  8.31679e-10  3.67731e-09
0.68  4.15625e+07  3.53521e-08  4.52268e-08  3.29416e-09  5.34188e-09  1.15054e-08
0.69  1.11563e+08  1.07462e-10  7.88443e-09  3.32579e-09  -3.32441e-09  -1.31903e-08
0.7  1.81563e+08  -1.68134e-08  -1.50576e-08  -2.29735e-09  -1.66219e-08  -1.5728e-08
0.71  2.51563e+08  3.58965e-09  1.84935e-09  8.24174e-09  -6.414e-09  1.50432e-08
0.72  3.21563e+08  4.34575e-08  3.41811e-08  1.66579e-09  -1.4168e-08  9.61125e-10
0.73  3.91563e+08  3.99113e-08  4.92033e-08  -8.45498e-09  -3.22323e-09  3.35307e-08
0.74  4.61563e+08  -1.98259e-08  -2.23975e-08  7.52237e-09  -5.18295e-09  9.18979e-09
0.75  5.20078e+08  6.99458e-08  6.82055e-08  8.16116e-09  -1.97173e-09  4.1782e-09
0.76  5.28828e+08  -7.00417e-08  -7.24696e-08  -2.8574e-09  -1.30829e-08  1.71219e-08
0.77  5.37578e+08  2.47441e-08  2.55987e-08  -4.76894e-09  -9.58125e-09  4.13359e-09
0.78  5.46328e+08  -2.71027e-08  -2.84428e-08  -2.37857e-09  -5.40872e-09  -1.51095e-10
0.79  5.55078e+08  3.28721e-09  -7.72562e-09  -2.1097e-09  -8.42382e-09  2.11047e-09
0.8  5.63828e+08  -3.04013e-08  -2.67809e-08  -6.07123e-09  -1.67288e-08  5.77568e-10
0.81  5.72578e+08  -2.83146e-08  -2.01492e-08  -8.99591e-09  -1.42722e-08  -1.98558e-09
0.82  5.81328e+08  2.10625e-08  1.76052e-08  -1.23481e-08  -1.62873e-08  -3.46073e-10
0.83  5.90078e+08  -1.48914e-08  -1.8271e-08  -8.90946e-09  -1.08874e-08  2.60754e-09
0.84  5.98828e+08  -2.07074e-08  -2.2067e-08  -1.03103e-08  -1.2408e-08  1.23017e-09
0.85  6.07578e+08  -3.71221e-08  -3.81904e-08  -7.12513e-09  -8.19691e-09  9.79346e-10
0.86  6.16328e+08  -1.35403e-08  -1.86292e-08  -1.22708e-08  -1.23072e-08  -1.63409e-09
0.87  6.25078e+08  -3.72304e-08  -4.2999e-08  -7.4008e-09  -7.36173e-10  4.27252e-09
0.88  6.33828e+08  -3.35635e-08  -3.29614e-08  -2.65565e-09  -9.49185e-09  -4.91786e-10
0.89  6.42578e+08  5.76194e-08  6.10884e-08  -4.42245e-09  -1.2711e-08  2.97575e-09
0.9  6.51328e+08  -1.49861e-08  -1.51609e-08  1.2351e-09  -5.85341e-09  6.2096e-09
0.91  6.60078e+08  -1.91826e-08  -2.04062e-08  -1.25567e-09  -7.13534e-10  1.41595e-10
0.92  6.68828e+08  -5.67372e-08  -4.94535e-08  -7.77282e-09  2.04539e-10  1.44776e-08
0.93  6.77578e+08  3.58487e-08  2.7963e-08  3.03897e-09  -5.61094e-09  1.14234e-08
0.94  6.86328e+08  -4.9256e-08  -3.7004e-08  -1.49973e-08  -3.44101e-08  4.43574e-09
0.95  6.95078e+08  1.19594e-08  1.44844e-08  -7.30691e-09  -1.61355e-08  2.852e-10
0.96  7.03828e+08  1.10177e-08  1.37564e-08  1.60154e-09  -5.3106e-09  4.58427e-09
0.97  7.12578e+08  3.44261e-08  3.54167e-08  -1.11821e-08  -2.01598e-08  1.43327e-08
0.98  7.21328e+08  1.365e-09  4.03974e-08  -5.03064e-10  2.6282e-09  6.45443e-09
0.99  7.30078e+08  -8.40812e-08  -5.05454e-08  -2.08173e-09  -4.06643e-09  8.9121e-09
1  7.38828e+08  8.35363e-08  4.24994e-08  -7.80212e-09  -1.44847e-08  -2.02776e-08
